# Formed from form_atmospheric_profiles_paper_model.py
# Z (cm)	T (K)	DEN (cm**-3)	P (bar)
0.0000000e+00	2.1000000e+02	6.8980464e+19	2.0000070e+00
1.0679921e+04	2.0945649e+02	6.8471295e+19	1.9801062e+00
2.1332201e+04	2.0891439e+02	6.7965886e+19	1.9604034e+00
3.1956912e+04	2.0837368e+02	6.7464208e+19	1.9408966e+00
4.2554124e+04	2.0783438e+02	6.6966233e+19	1.9215840e+00
5.3123909e+04	2.0729648e+02	6.6471936e+19	1.9024636e+00
6.3666338e+04	2.0675996e+02	6.5981287e+19	1.8835335e+00
7.4181481e+04	2.0622484e+02	6.5494261e+19	1.8647917e+00
8.4669410e+04	2.0569110e+02	6.5010831e+19	1.8462365e+00
9.5130195e+04	2.0515874e+02	6.4530969e+19	1.8278659e+00
1.0556391e+05	2.0462776e+02	6.4054650e+19	1.8096781e+00
1.1597061e+05	2.0409815e+02	6.3581847e+19	1.7916713e+00
1.2635038e+05	2.0356992e+02	6.3112534e+19	1.7738437e+00
1.3670329e+05	2.0304305e+02	6.2646687e+19	1.7561934e+00
1.4702941e+05	2.0251755e+02	6.2184277e+19	1.7387188e+00
1.5732879e+05	2.0199340e+02	6.1725282e+19	1.7214181e+00
1.6760153e+05	2.0147061e+02	6.1269675e+19	1.7042896e+00
1.7784767e+05	2.0094918e+02	6.0817431e+19	1.6873315e+00
1.8806730e+05	2.0042909e+02	6.0368525e+19	1.6705422e+00
1.9826787e+05	2.0025163e+02	5.9820815e+19	1.6539200e+00
2.0846201e+05	2.0012512e+02	5.9263026e+19	1.6374632e+00
2.1864970e+05	1.9999877e+02	5.8710416e+19	1.6211701e+00
2.2883097e+05	1.9987258e+02	5.8162935e+19	1.6050392e+00
2.3900581e+05	1.9974655e+02	5.7620536e+19	1.5890688e+00
2.4917424e+05	1.9962068e+02	5.7083173e+19	1.5732573e+00
2.5933626e+05	1.9949496e+02	5.6550799e+19	1.5576031e+00
2.6949189e+05	1.9936941e+02	5.6023367e+19	1.5421046e+00
2.7964113e+05	1.9924401e+02	5.5500833e+19	1.5267604e+00
2.8978398e+05	1.9911877e+02	5.4983151e+19	1.5115689e+00
2.9992046e+05	1.9899369e+02	5.4470276e+19	1.4965285e+00
3.1005058e+05	1.9886877e+02	5.3962164e+19	1.4816378e+00
3.2017434e+05	1.9874400e+02	5.3458770e+19	1.4668952e+00
3.3029175e+05	1.9861939e+02	5.2960052e+19	1.4522994e+00
3.4040281e+05	1.9849493e+02	5.2465965e+19	1.4378488e+00
3.5050755e+05	1.9837063e+02	5.1976468e+19	1.4235419e+00
3.6060596e+05	1.9824649e+02	5.1491517e+19	1.4093774e+00
3.7069805e+05	1.9812250e+02	5.1011071e+19	1.3953539e+00
3.8078383e+05	1.9799867e+02	5.0535088e+19	1.3814699e+00
3.9086330e+05	1.9787499e+02	5.0063527e+19	1.3677240e+00
4.0093649e+05	1.9775146e+02	4.9596347e+19	1.3541149e+00
4.1100339e+05	1.9762809e+02	4.9133508e+19	1.3406412e+00
4.2106401e+05	1.9750488e+02	4.8674968e+19	1.3273016e+00
4.3111836e+05	1.9738181e+02	4.8220690e+19	1.3140947e+00
4.4116644e+05	1.9725891e+02	4.7770632e+19	1.3010192e+00
4.5120827e+05	1.9713615e+02	4.7324757e+19	1.2880739e+00
4.6124386e+05	1.9701354e+02	4.6883025e+19	1.2752573e+00
4.7127320e+05	1.9689109e+02	4.6445399e+19	1.2625683e+00
4.8129631e+05	1.9676879e+02	4.6011839e+19	1.2500055e+00
4.9131320e+05	1.9664665e+02	4.5582309e+19	1.2375677e+00
5.0132388e+05	1.9652465e+02	4.5156772e+19	1.2252537e+00
5.1132834e+05	1.9640281e+02	4.4735190e+19	1.2130622e+00
5.2132660e+05	1.9628111e+02	4.4317527e+19	1.2009921e+00
5.3131867e+05	1.9615957e+02	4.3903746e+19	1.1890420e+00
5.4130456e+05	1.9603818e+02	4.3493812e+19	1.1772108e+00
5.5128426e+05	1.9591693e+02	4.3087690e+19	1.1654974e+00
5.6125780e+05	1.9579584e+02	4.2685343e+19	1.1539005e+00
5.7122518e+05	1.9567490e+02	4.2286737e+19	1.1424190e+00
5.8118640e+05	1.9555410e+02	4.1891837e+19	1.1310517e+00
5.9114147e+05	1.9543346e+02	4.1500609e+19	1.1197975e+00
6.0109040e+05	1.9531296e+02	4.1113019e+19	1.1086553e+00
6.1103320e+05	1.9519262e+02	4.0729034e+19	1.0976240e+00
6.2096987e+05	1.9507242e+02	4.0348620e+19	1.0867025e+00
6.3090043e+05	1.9495237e+02	3.9971743e+19	1.0758896e+00
6.4082488e+05	1.9483246e+02	3.9598372e+19	1.0651843e+00
6.5074323e+05	1.9471271e+02	3.9228474e+19	1.0545856e+00
6.6065548e+05	1.9459310e+02	3.8862016e+19	1.0440922e+00
6.7056164e+05	1.9447363e+02	3.8498967e+19	1.0337033e+00
6.8046173e+05	1.9435432e+02	3.8139295e+19	1.0234178e+00
6.9035574e+05	1.9423515e+02	3.7782970e+19	1.0132346e+00
7.0024369e+05	1.9411613e+02	3.7429959e+19	1.0031528e+00
7.1012558e+05	1.9399725e+02	3.7080232e+19	9.9317124e-01
7.2000142e+05	1.9387852e+02	3.6733760e+19	9.8328901e-01
7.2987122e+05	1.9375993e+02	3.6390511e+19	9.7350512e-01
7.3973499e+05	1.9364149e+02	3.6050456e+19	9.6381857e-01
7.4959272e+05	1.9352319e+02	3.5713566e+19	9.5422841e-01
7.5944444e+05	1.9340504e+02	3.5379810e+19	9.4473368e-01
7.6929014e+05	1.9328703e+02	3.5049161e+19	9.3533341e-01
7.7912984e+05	1.9316917e+02	3.4721588e+19	9.2602668e-01
7.8896354e+05	1.9305145e+02	3.4397065e+19	9.1681256e-01
7.9879125e+05	1.9293387e+02	3.4075562e+19	9.0769012e-01
8.0861297e+05	1.9281643e+02	3.3757051e+19	8.9865845e-01
8.1842872e+05	1.9269914e+02	3.3441505e+19	8.8971664e-01
8.2823850e+05	1.9258199e+02	3.3128897e+19	8.8086381e-01
8.3804231e+05	1.9246499e+02	3.2819198e+19	8.7209906e-01
8.4784017e+05	1.9234812e+02	3.2512383e+19	8.6342153e-01
8.5763209e+05	1.9223140e+02	3.2208424e+19	8.5483033e-01
8.6741806e+05	1.9211482e+02	3.1907296e+19	8.4632462e-01
8.7719810e+05	1.9199838e+02	3.1608971e+19	8.3790355e-01
8.8697222e+05	1.9188208e+02	3.1313423e+19	8.2956627e-01
8.9674042e+05	1.9176592e+02	3.1020628e+19	8.2131194e-01
9.0650270e+05	1.9164991e+02	3.0730559e+19	8.1313975e-01
9.1625908e+05	1.9153403e+02	3.0443192e+19	8.0504887e-01
9.2600957e+05	1.9141829e+02	3.0158500e+19	7.9703849e-01
9.3575416e+05	1.9130270e+02	2.9876461e+19	7.8910782e-01
9.4549287e+05	1.9118724e+02	2.9597047e+19	7.8125606e-01
9.5522571e+05	1.9107192e+02	2.9320237e+19	7.7348243e-01
9.6495267e+05	1.9095674e+02	2.9046005e+19	7.6578615e-01
9.7467378e+05	1.9084170e+02	2.8774327e+19	7.5816645e-01
9.8438903e+05	1.9072680e+02	2.8505180e+19	7.5062256e-01
9.9409843e+05	1.9061203e+02	2.8238540e+19	7.4315374e-01
1.0038020e+06	1.9049741e+02	2.7974384e+19	7.3575923e-01
1.0134997e+06	1.9038292e+02	2.7712689e+19	7.2843830e-01
1.0231916e+06	1.9026857e+02	2.7453433e+19	7.2119022e-01
1.0328777e+06	1.9015436e+02	2.7196592e+19	7.1401425e-01
1.0425580e+06	1.9004028e+02	2.6942144e+19	7.0690969e-01
1.0522324e+06	1.8992634e+02	2.6690067e+19	6.9987582e-01
1.0619011e+06	1.8981254e+02	2.6440339e+19	6.9291193e-01
1.0715640e+06	1.8969887e+02	2.6192939e+19	6.8601734e-01
1.0812211e+06	1.8958534e+02	2.5947844e+19	6.7919135e-01
1.0908724e+06	1.8947195e+02	2.5705033e+19	6.7243328e-01
1.1005179e+06	1.8935869e+02	2.5464485e+19	6.6574246e-01
1.1101577e+06	1.8924557e+02	2.5226179e+19	6.5911821e-01
1.1197917e+06	1.8913258e+02	2.4990095e+19	6.5255987e-01
1.1294200e+06	1.8901972e+02	2.4756211e+19	6.4606679e-01
1.1390425e+06	1.8890701e+02	2.4524507e+19	6.3963831e-01
1.1486593e+06	1.8879442e+02	2.4294964e+19	6.3327380e-01
1.1582704e+06	1.8868197e+02	2.4067560e+19	6.2697262e-01
1.1678757e+06	1.8856965e+02	2.3842276e+19	6.2073414e-01
1.1774753e+06	1.8845747e+02	2.3619093e+19	6.1455772e-01
1.1870692e+06	1.8834542e+02	2.3397990e+19	6.0844277e-01
1.1966574e+06	1.8823350e+02	2.3178949e+19	6.0238866e-01
1.2062399e+06	1.8812172e+02	2.2961951e+19	5.9639479e-01
1.2158168e+06	1.8801007e+02	2.2746976e+19	5.9046056e-01
1.2253879e+06	1.8789855e+02	2.2534006e+19	5.8458538e-01
1.2349534e+06	1.8778716e+02	2.2323022e+19	5.7876866e-01
1.2445132e+06	1.8767591e+02	2.2114005e+19	5.7300981e-01
1.2540673e+06	1.8756479e+02	2.1906938e+19	5.6730827e-01
1.2636158e+06	1.8745380e+02	2.1701803e+19	5.6166345e-01
1.2731586e+06	1.8734294e+02	2.1498580e+19	5.5607481e-01
1.2826958e+06	1.8723221e+02	2.1297253e+19	5.5054177e-01
1.2922274e+06	1.8712161e+02	2.1097805e+19	5.4506378e-01
1.3017533e+06	1.8701114e+02	2.0900216e+19	5.3964031e-01
1.3112736e+06	1.8690081e+02	2.0704471e+19	5.3427079e-01
1.3207883e+06	1.8679060e+02	2.0510552e+19	5.2895471e-01
1.3302974e+06	1.8668052e+02	2.0318443e+19	5.2369152e-01
1.3398008e+06	1.8657058e+02	2.0128125e+19	5.1848070e-01
1.3492987e+06	1.8646076e+02	1.9939584e+19	5.1332173e-01
1.3587910e+06	1.8635107e+02	1.9752802e+19	5.0821409e-01
1.3682777e+06	1.8624151e+02	1.9567762e+19	5.0315727e-01
1.3777589e+06	1.8613208e+02	1.9384449e+19	4.9815077e-01
1.3872344e+06	1.8602278e+02	1.9202847e+19	4.9319409e-01
1.3967044e+06	1.8591360e+02	1.9022940e+19	4.8828673e-01
1.4061689e+06	1.8580456e+02	1.8844712e+19	4.8342819e-01
1.4156278e+06	1.8569564e+02	1.8668147e+19	4.7861800e-01
1.4250811e+06	1.8558685e+02	1.8493230e+19	4.7385567e-01
1.4345289e+06	1.8547818e+02	1.8319946e+19	4.6914072e-01
1.4439712e+06	1.8536965e+02	1.8148279e+19	4.6447269e-01
1.4534080e+06	1.8526124e+02	1.7978215e+19	4.5985111e-01
1.4628392e+06	1.8515296e+02	1.7809738e+19	4.5527552e-01
1.4722650e+06	1.8504480e+02	1.7642834e+19	4.5074545e-01
1.4816852e+06	1.8493677e+02	1.7477488e+19	4.4626045e-01
1.4910999e+06	1.8482887e+02	1.7313686e+19	4.4182009e-01
1.5005092e+06	1.8472109e+02	1.7151413e+19	4.3742390e-01
1.5099129e+06	1.8461344e+02	1.6990656e+19	4.3307146e-01
1.5193112e+06	1.8450591e+02	1.6831399e+19	4.2876233e-01
1.5287040e+06	1.8439851e+02	1.6673630e+19	4.2449607e-01
1.5380914e+06	1.8429123e+02	1.6517333e+19	4.2027226e-01
1.5474732e+06	1.8418408e+02	1.6362497e+19	4.1609048e-01
1.5568497e+06	1.8407706e+02	1.6209106e+19	4.1195031e-01
1.5662206e+06	1.8397015e+02	1.6057148e+19	4.0785134e-01
1.5755862e+06	1.8386337e+02	1.5906609e+19	4.0379315e-01
1.5849463e+06	1.8375672e+02	1.5757476e+19	3.9977534e-01
1.5943010e+06	1.8365019e+02	1.5609736e+19	3.9579750e-01
1.6036502e+06	1.8354378e+02	1.5463376e+19	3.9185925e-01
1.6129941e+06	1.8343750e+02	1.5318383e+19	3.8796019e-01
1.6223325e+06	1.8333133e+02	1.5174745e+19	3.8409992e-01
1.6316655e+06	1.8322530e+02	1.5032448e+19	3.8027806e-01
1.6409931e+06	1.8311938e+02	1.4891481e+19	3.7649423e-01
1.6503154e+06	1.8301359e+02	1.4751831e+19	3.7274805e-01
1.6596322e+06	1.8290791e+02	1.4613486e+19	3.6903914e-01
1.6689437e+06	1.8280236e+02	1.4476433e+19	3.6536714e-01
1.6782498e+06	1.8269694e+02	1.4340661e+19	3.6173167e-01
1.6875506e+06	1.8259163e+02	1.4206157e+19	3.5813238e-01
1.6968460e+06	1.8248645e+02	1.4072910e+19	3.5456891e-01
1.7061360e+06	1.8238138e+02	1.3940909e+19	3.5104089e-01
1.7154207e+06	1.8227644e+02	1.3810141e+19	3.4754797e-01
1.7247000e+06	1.8217162e+02	1.3680595e+19	3.4408981e-01
1.7339740e+06	1.8206691e+02	1.3552260e+19	3.4066606e-01
1.7432427e+06	1.8196233e+02	1.3425124e+19	3.3727637e-01
1.7525060e+06	1.8185787e+02	1.3299177e+19	3.3392042e-01
1.7617641e+06	1.8175353e+02	1.3174406e+19	3.3059785e-01
1.7710168e+06	1.8164931e+02	1.3050803e+19	3.2730835e-01
1.7802642e+06	1.8154521e+02	1.2928354e+19	3.2405157e-01
1.7895064e+06	1.8144122e+02	1.2807050e+19	3.2082721e-01
1.7987432e+06	1.8133736e+02	1.2686880e+19	3.1763492e-01
1.8079747e+06	1.8123361e+02	1.2567834e+19	3.1447440e-01
1.8172010e+06	1.8112999e+02	1.2449901e+19	3.1134533e-01
1.8264220e+06	1.8102648e+02	1.2333070e+19	3.0824739e-01
1.8356377e+06	1.8092309e+02	1.2217331e+19	3.0518028e-01
1.8448482e+06	1.8081982e+02	1.2102675e+19	3.0214368e-01
1.8540534e+06	1.8071666e+02	1.1989091e+19	2.9913730e-01
1.8632533e+06	1.8061363e+02	1.1876569e+19	2.9616083e-01
1.8724481e+06	1.8051071e+02	1.1765099e+19	2.9321398e-01
1.8816375e+06	1.8040790e+02	1.1654672e+19	2.9029646e-01
1.8908218e+06	1.8030522e+02	1.1545277e+19	2.8740796e-01
1.9000008e+06	1.8020265e+02	1.1436906e+19	2.8454820e-01
1.9091746e+06	1.8010020e+02	1.1329548e+19	2.8171690e-01
1.9183432e+06	1.7999787e+02	1.1223194e+19	2.7891377e-01
1.9275066e+06	1.7989565e+02	1.1117835e+19	2.7613853e-01
1.9366647e+06	1.7979354e+02	1.1013462e+19	2.7339090e-01
1.9458177e+06	1.7969156e+02	1.0910065e+19	2.7067062e-01
1.9549655e+06	1.7958969e+02	1.0807635e+19	2.6797740e-01
1.9641081e+06	1.7948793e+02	1.0706163e+19	2.6531098e-01
1.9732455e+06	1.7938629e+02	1.0605641e+19	2.6267109e-01
1.9823778e+06	1.7928476e+02	1.0506059e+19	2.6005747e-01
1.9915048e+06	1.7918335e+02	1.0407409e+19	2.5746985e-01
2.0006268e+06	1.7908206e+02	1.0309681e+19	2.5490798e-01
2.0097435e+06	1.7898088e+02	1.0212869e+19	2.5237161e-01
2.0188552e+06	1.7887981e+02	1.0116962e+19	2.4986047e-01
2.0279616e+06	1.7877886e+02	1.0021952e+19	2.4737431e-01
2.0370630e+06	1.7867802e+02	9.9278320e+18	2.4491290e-01
2.0461592e+06	1.7857729e+02	9.8345924e+18	2.4247597e-01
2.0552502e+06	1.7847668e+02	9.7422254e+18	2.4006330e-01
2.0643362e+06	1.7837618e+02	9.6507229e+18	2.3767463e-01
2.0734170e+06	1.7827580e+02	9.5600768e+18	2.3530972e-01
2.0824928e+06	1.7817552e+02	9.4702790e+18	2.3296835e-01
2.0915634e+06	1.7807536e+02	9.3813218e+18	2.3065028e-01
2.1006289e+06	1.7797532e+02	9.2931972e+18	2.2835527e-01
2.1096894e+06	1.7787538e+02	9.2058976e+18	2.2608310e-01
2.1187447e+06	1.7777556e+02	9.1194151e+18	2.2383353e-01
2.1277950e+06	1.7767585e+02	9.0337423e+18	2.2160635e-01
2.1368402e+06	1.7757625e+02	8.9488715e+18	2.1940133e-01
2.1458803e+06	1.7747676e+02	8.8647952e+18	2.1721825e-01
2.1549154e+06	1.7737738e+02	8.7815061e+18	2.1505689e-01
2.1639454e+06	1.7727812e+02	8.6989968e+18	2.1291704e-01
2.1729704e+06	1.7717897e+02	8.6172601e+18	2.1079848e-01
2.1819903e+06	1.7707992e+02	8.5362887e+18	2.0870100e-01
2.1910051e+06	1.7698099e+02	8.4560755e+18	2.0662439e-01
2.2000150e+06	1.7688217e+02	8.3766134e+18	2.0456844e-01
2.2090198e+06	1.7678346e+02	8.2978955e+18	2.0253295e-01
2.2180196e+06	1.7668486e+02	8.2199147e+18	2.0051772e-01
2.2270143e+06	1.7658636e+02	8.1426642e+18	1.9852253e-01
2.2360041e+06	1.7648798e+02	8.0661373e+18	1.9654720e-01
2.2449888e+06	1.7638971e+02	7.9903270e+18	1.9459152e-01
2.2539686e+06	1.7629155e+02	7.9152268e+18	1.9265530e-01
2.2629433e+06	1.7619349e+02	7.8408301e+18	1.9073835e-01
2.2719131e+06	1.7609555e+02	7.7671302e+18	1.8884047e-01
2.2808778e+06	1.7599771e+02	7.6941207e+18	1.8696148e-01
2.2898376e+06	1.7589999e+02	7.6217951e+18	1.8510118e-01
2.2987924e+06	1.7580237e+02	7.5501470e+18	1.8325939e-01
2.3077423e+06	1.7570486e+02	7.4791702e+18	1.8143593e-01
2.3166872e+06	1.7560745e+02	7.4088583e+18	1.7963061e-01
2.3256271e+06	1.7551016e+02	7.3392052e+18	1.7784326e-01
2.3345621e+06	1.7541297e+02	7.2702046e+18	1.7607369e-01
2.3434921e+06	1.7531589e+02	7.2018506e+18	1.7432172e-01
2.3524172e+06	1.7521892e+02	7.1341371e+18	1.7258719e-01
2.3613374e+06	1.7512206e+02	7.0670580e+18	1.7086992e-01
2.3702526e+06	1.7502530e+02	7.0006075e+18	1.6916974e-01
2.3791629e+06	1.7492865e+02	6.9347798e+18	1.6748647e-01
2.3880683e+06	1.7483211e+02	6.8695689e+18	1.6581995e-01
2.3969687e+06	1.7473567e+02	6.8049691e+18	1.6417002e-01
2.4058643e+06	1.7463934e+02	6.7409748e+18	1.6253650e-01
2.4147550e+06	1.7454311e+02	6.6775803e+18	1.6091923e-01
2.4236407e+06	1.7444700e+02	6.6147799e+18	1.5931806e-01
2.4325216e+06	1.7435098e+02	6.5525682e+18	1.5773282e-01
2.4413976e+06	1.7425507e+02	6.4909396e+18	1.5616335e-01
2.4502687e+06	1.7415927e+02	6.4298887e+18	1.5460950e-01
2.4591349e+06	1.7406358e+02	6.3694101e+18	1.5307111e-01
2.4679962e+06	1.7396798e+02	6.3094984e+18	1.5154802e-01
2.4768527e+06	1.7387250e+02	6.2501484e+18	1.5004010e-01
2.4857044e+06	1.7377712e+02	6.1913548e+18	1.4854717e-01
2.4945511e+06	1.7368184e+02	6.1331124e+18	1.4706910e-01
2.5033931e+06	1.7358667e+02	6.0754160e+18	1.4560574e-01
2.5122301e+06	1.7349160e+02	6.0182607e+18	1.4415694e-01
2.5210624e+06	1.7339663e+02	5.9616412e+18	1.4272255e-01
2.5298898e+06	1.7330177e+02	5.9055526e+18	1.4130244e-01
2.5387124e+06	1.7320702e+02	5.8499900e+18	1.3989646e-01
2.5475301e+06	1.7311236e+02	5.7949484e+18	1.3850446e-01
2.5563431e+06	1.7301781e+02	5.7404230e+18	1.3712632e-01
2.5651512e+06	1.7292337e+02	5.6864089e+18	1.3576189e-01
2.5739545e+06	1.7282902e+02	5.6329014e+18	1.3441104e-01
2.5827531e+06	1.7273478e+02	5.5798957e+18	1.3307363e-01
2.5915468e+06	1.7264064e+02	5.5273872e+18	1.3174952e-01
2.6003357e+06	1.7254661e+02	5.4753711e+18	1.3043859e-01
2.6091199e+06	1.7245267e+02	5.4238430e+18	1.2914071e-01
2.6178992e+06	1.7235884e+02	5.3727982e+18	1.2785573e-01
2.6266738e+06	1.7226511e+02	5.3222321e+18	1.2658355e-01
2.6354436e+06	1.7217149e+02	5.2721405e+18	1.2532402e-01
2.6442087e+06	1.7207796e+02	5.2225187e+18	1.2407703e-01
2.6529690e+06	1.7198454e+02	5.1733625e+18	1.2284244e-01
2.6617245e+06	1.7189122e+02	5.1246674e+18	1.2162014e-01
2.6704753e+06	1.7179800e+02	5.0764292e+18	1.2041000e-01
2.6792214e+06	1.7170488e+02	5.0286436e+18	1.1921190e-01
2.6879627e+06	1.7161186e+02	4.9813063e+18	1.1802572e-01
2.6966993e+06	1.7151894e+02	4.9344132e+18	1.1685134e-01
2.7054311e+06	1.7142612e+02	4.8879601e+18	1.1568865e-01
2.7141582e+06	1.7133340e+02	4.8419429e+18	1.1453753e-01
2.7228806e+06	1.7124079e+02	4.7963575e+18	1.1339786e-01
2.7315983e+06	1.7114827e+02	4.7511999e+18	1.1226953e-01
2.7403113e+06	1.7105585e+02	4.7064660e+18	1.1115243e-01
2.7490196e+06	1.7096353e+02	4.6621520e+18	1.1004645e-01
2.7577232e+06	1.7087132e+02	4.6182539e+18	1.0895147e-01
2.7664220e+06	1.7077920e+02	4.5747678e+18	1.0786738e-01
2.7751162e+06	1.7068718e+02	4.5316899e+18	1.0679408e-01
2.7838057e+06	1.7059526e+02	4.4890163e+18	1.0573147e-01
2.7924906e+06	1.7050344e+02	4.4467432e+18	1.0467942e-01
2.8011707e+06	1.7041172e+02	4.4048670e+18	1.0363784e-01
2.8098462e+06	1.7032009e+02	4.3633839e+18	1.0260663e-01
2.8185171e+06	1.7022857e+02	4.3222901e+18	1.0158568e-01
2.8271832e+06	1.7013714e+02	4.2815822e+18	1.0057488e-01
2.8358448e+06	1.7008478e+02	4.2402848e+18	9.9574144e-02
2.8445059e+06	1.7008478e+02	4.1980933e+18	9.8583365e-02
2.8531671e+06	1.7008478e+02	4.1563215e+18	9.7602444e-02
2.8618283e+06	1.7008478e+02	4.1149654e+18	9.6631283e-02
2.8704895e+06	1.7008478e+02	4.0740209e+18	9.5669786e-02
2.8791506e+06	1.7008478e+02	4.0334837e+18	9.4717856e-02
2.8878118e+06	1.7008478e+02	3.9933498e+18	9.3775397e-02
2.8964730e+06	1.7008478e+02	3.9536153e+18	9.2842317e-02
2.9051342e+06	1.7008478e+02	3.9142762e+18	9.1918520e-02
2.9137953e+06	1.7008478e+02	3.8753285e+18	9.1003916e-02
2.9224565e+06	1.7008478e+02	3.8367684e+18	9.0098411e-02
2.9311177e+06	1.7008478e+02	3.7985919e+18	8.9201917e-02
2.9397789e+06	1.7008478e+02	3.7607952e+18	8.8314343e-02
2.9484401e+06	1.7008478e+02	3.7233747e+18	8.7435601e-02
2.9571012e+06	1.7008478e+02	3.6863265e+18	8.6565602e-02
2.9657624e+06	1.7008478e+02	3.6496470e+18	8.5704260e-02
2.9744236e+06	1.7008478e+02	3.6133324e+18	8.4851488e-02
2.9830848e+06	1.7008478e+02	3.5773791e+18	8.4007202e-02
2.9917459e+06	1.7008478e+02	3.5417836e+18	8.3171316e-02
3.0004071e+06	1.7008478e+02	3.5065422e+18	8.2343748e-02
3.0090683e+06	1.7008478e+02	3.4716516e+18	8.1524414e-02
3.0177295e+06	1.7008478e+02	3.4371081e+18	8.0713233e-02
3.0263907e+06	1.7008478e+02	3.4029083e+18	7.9910122e-02
3.0350518e+06	1.7008478e+02	3.3690488e+18	7.9115003e-02
3.0437130e+06	1.7008478e+02	3.3355262e+18	7.8327796e-02
3.0523742e+06	1.7008478e+02	3.3023371e+18	7.7548421e-02
3.0610354e+06	1.7008478e+02	3.2694783e+18	7.6776802e-02
3.0696965e+06	1.7008478e+02	3.2369465e+18	7.6012860e-02
3.0783577e+06	1.7008478e+02	3.2047383e+18	7.5256519e-02
3.0870189e+06	1.7008478e+02	3.1728506e+18	7.4507704e-02
3.0956801e+06	1.7008478e+02	3.1412802e+18	7.3766340e-02
3.1043413e+06	1.7008478e+02	3.1100240e+18	7.3032353e-02
3.1130024e+06	1.7008478e+02	3.0790787e+18	7.2305669e-02
3.1216636e+06	1.7008478e+02	3.0484414e+18	7.1586215e-02
3.1303248e+06	1.7008478e+02	3.0181089e+18	7.0873921e-02
3.1389860e+06	1.7008478e+02	2.9880782e+18	7.0168713e-02
3.1476471e+06	1.7008478e+02	2.9583463e+18	6.9470523e-02
3.1563083e+06	1.7008478e+02	2.9289103e+18	6.8779280e-02
3.1649695e+06	1.7008478e+02	2.8997671e+18	6.8094915e-02
3.1736307e+06	1.7008478e+02	2.8709140e+18	6.7417359e-02
3.1822918e+06	1.7008478e+02	2.8423479e+18	6.6746545e-02
3.1909530e+06	1.7008478e+02	2.8140661e+18	6.6082406e-02
3.1996142e+06	1.7008478e+02	2.7860656e+18	6.5424875e-02
3.2082754e+06	1.7008478e+02	2.7583438e+18	6.4773886e-02
3.2169366e+06	1.7008478e+02	2.7308978e+18	6.4129375e-02
3.2255977e+06	1.7008478e+02	2.7037250e+18	6.3491277e-02
3.2342589e+06	1.7008478e+02	2.6768224e+18	6.2859529e-02
3.2429201e+06	1.7008478e+02	2.6501876e+18	6.2234066e-02
3.2515813e+06	1.7008478e+02	2.6238178e+18	6.1614827e-02
3.2602424e+06	1.7008478e+02	2.5977104e+18	6.1001749e-02
3.2689036e+06	1.7008478e+02	2.5718627e+18	6.0394771e-02
3.2775648e+06	1.7008478e+02	2.5462723e+18	5.9793833e-02
3.2862260e+06	1.7008478e+02	2.5209364e+18	5.9198875e-02
3.2948872e+06	1.7008478e+02	2.4958527e+18	5.8609836e-02
3.3035483e+06	1.7008478e+02	2.4710186e+18	5.8026658e-02
