Extracted from Rugheimer output_couple_Sun_100.dat
Z (cm)	T (K)	DEN (cm**-3)	P (bar) 
0.0000000e+00		2.8812000e+02		2.5904203e+19		1.0304752e+00
3.9111000e+04		2.8622000e+02		2.4889530e+19		9.8358204e-01
1.1649000e+05		2.8234000e+02		2.2986065e+19		8.9604737e-01
1.9272000e+05		2.7834000e+02		2.1241378e+19		8.1630460e-01
2.6779000e+05		2.7418000e+02		1.9644794e+19		7.4366471e-01
3.4169000e+05		2.7012000e+02		1.8165414e+19		6.7747921e-01
4.1444000e+05		2.6591000e+02		1.6810897e+19		6.1719084e-01
4.8599000e+05		2.6141000e+02		1.5578407e+19		5.6226256e-01
5.5624000e+05		2.5658000e+02		1.4459285e+19		5.1222827e-01
6.2514000e+05		2.5143000e+02		1.3442280e+19		4.6664216e-01
6.9258000e+05		2.4599000e+02		1.2516973e+19		4.2511917e-01
7.5852000e+05		2.4032000e+02		1.1672024e+19		3.8728441e-01
8.2289000e+05		2.3450000e+02		1.0897042e+19		3.5281365e-01
8.8568000e+05		2.2862000e+02		1.0182843e+19		3.2142317e-01
9.4687000e+05		2.2275000e+02		9.5211146e+18		2.9281912e-01
1.0066000e+06		2.1767000e+02		8.8761674e+18		2.6675833e-01
1.0651000e+06		2.1433000e+02		8.2122345e+18		2.4301788e-01
1.1230000e+06		2.1241000e+02		7.5491694e+18		2.2139512e-01
1.1804000e+06		2.1106000e+02		6.9211608e+18		2.0168741e-01
1.2375000e+06		2.0999000e+02		6.3374958e+18		1.8374276e-01
1.2943000e+06		2.0912000e+02		5.7974520e+18		1.6738890e-01
1.3509000e+06		2.0840000e+02		5.2998243e+18		1.5249412e-01
1.4073000e+06		2.0778000e+02		4.8427057e+18		1.3892671e-01
1.4636000e+06		2.0725000e+02		4.4227316e+18		1.2655492e-01
1.5197000e+06		2.0683000e+02		4.0375067e+18		1.1529772e-01
1.5758000e+06		2.0656000e+02		3.6828808e+18		1.0503350e-01
1.6317000e+06		2.0646000e+02		3.3568269e+18		9.5688290e-02
1.6877000e+06		2.0654000e+02		3.0569165e+18		8.7172937e-02
1.7438000e+06		2.0679000e+02		2.7814820e+18		7.9414482e-02
1.7999000e+06		2.0723000e+02		2.5285664e+18		7.2347063e-02
1.8562000e+06		2.0782000e+02		2.2970086e+18		6.5908873e-02
1.9126000e+06		2.0855000e+02		2.0852917e+18		6.0044182e-02
1.9693000e+06		2.0940000e+02		1.8919912e+18		5.4700301e-02
2.0262000e+06		2.1035000e+02		1.7158429e+18		4.9832648e-02
2.0833000e+06		2.1139000e+02		1.5554464e+18		4.5397653e-02
2.1408000e+06		2.1253000e+02		1.4094301e+18		4.1357825e-02
2.1986000e+06		2.1376000e+02		1.2765927e+18		3.7676688e-02
2.2567000e+06		2.1508000e+02		1.1558513e+18		3.4323844e-02
2.3152000e+06		2.1649000e+02		1.0461521e+18		3.1269908e-02
2.3741000e+06		2.1798000e+02		9.4651757e+17		2.8486510e-02
2.4334000e+06		2.1953000e+02		8.5619424e+17		2.5951359e-02
2.4932000e+06		2.2111000e+02		7.7443484e+17		2.3642162e-02
2.5533000e+06		2.2269000e+02		7.0049254e+17		2.1537642e-02
2.6139000e+06		2.2423000e+02		6.3379159e+17		1.9621586e-02
2.6749000e+06		2.2570000e+02		5.7360685e+17		1.7874743e-02
2.7363000e+06		2.2706000e+02		5.1945984e+17		1.6284954e-02
2.7980000e+06		2.2831000e+02		4.7061796e+17		1.4834993e-02
2.8601000e+06		2.2946000e+02		4.2658582e+17		1.3514728e-02
2.9225000e+06		2.3052000e+02		3.8683530e+17		1.2312001e-02
2.9851000e+06		2.3157000e+02		3.5082296e+17		1.1216677e-02
3.0480000e+06		2.3269000e+02		3.1806865e+17		1.0218626e-02
3.1113000e+06		2.3395000e+02		2.8819573e+17		9.3090317e-03
3.1749000e+06		2.3530000e+02		2.6104216e+17		8.4805985e-03
3.2389000e+06		2.3671000e+02		2.3639606e+17		7.7259299e-03
3.3033000e+06		2.3816000e+02		2.1404614e+17		7.0383385e-03
3.3681000e+06		2.3967000e+02		1.9376813e+17		6.4119473e-03
3.4332000e+06		2.4124000e+02		1.7537702e+17		5.8413863e-03
3.4989000e+06		2.4287000e+02		1.5869574e+17		5.3214877e-03
3.5650000e+06		2.4454000e+02		1.4358809e+17		4.8479959e-03
3.6315000e+06		2.4627000e+02		1.2989072e+17		4.4165541e-03
3.6985000e+06		2.4803000e+02		1.1749176e+17		4.0235144e-03
3.7660000e+06		2.4983000e+02		1.0626412e+17		3.6654319e-03
3.8340000e+06		2.5170000e+02		9.6089065e+16		3.3392667e-03
3.9025000e+06		2.5364000e+02		8.6867841e+16		3.0420805e-03
3.9715000e+06		2.5566000e+02		7.8511471e+16		2.7713401e-03
4.0411000e+06		2.5774000e+02		7.0947422e+16		2.5247150e-03
4.1113000e+06		2.5984000e+02		6.4112474e+16		2.3000775e-03
4.1820000e+06		2.6192000e+02		5.7940676e+16		2.0952997e-03
4.2533000e+06		2.6390000e+02		5.2389125e+16		1.9088617e-03
4.3251000e+06		2.6573000e+02		4.7399668e+16		1.7390410e-03
4.3974000e+06		2.6731000e+02		4.2924512e+16		1.5842164e-03
4.4700000e+06		2.6854000e+02		3.8926528e+16		1.4432733e-03
4.5430000e+06		2.6946000e+02		3.5340218e+16		1.3147932e-03
4.6161000e+06		2.7015000e+02		3.2112339e+16		1.1977628e-03
4.6894000e+06		2.7057000e+02		2.9209117e+16		1.0911689e-03
4.7628000e+06		2.7073000e+02		2.6594975e+16		9.9409957e-04
4.8362000e+06		2.7076000e+02		2.4225552e+16		9.0563272e-04
4.9096000e+06		2.7057000e+02		2.2085173e+16		8.2503881e-04
4.9829000e+06		2.7008000e+02		2.0156320e+16		7.5161872e-04
5.0560000e+06		2.6937000e+02		1.8410788e+16		6.8472395e-04
5.1289000e+06		2.6850000e+02		1.6826670e+16		6.2378710e-04
5.2016000e+06		2.6745000e+02		1.5389582e+16		5.6828126e-04
5.2739000e+06		2.6623000e+02		1.4084311e+16		5.1770995e-04
5.3459000e+06		2.6483000e+02		1.2898737e+16		4.7163748e-04
5.4175000e+06		2.6319000e+02		1.1823883e+16		4.2965853e-04
5.4886000e+06		2.6139000e+02		1.0846002e+16		3.9142861e-04
5.5592000e+06		2.5942000e+02		9.9557853e+15		3.5659307e-04
5.6293000e+06		2.5720000e+02		9.1480554e+15		3.2485808e-04
5.6987000e+06		2.5475000e+02		8.4141513e+15		2.9595006e-04
5.7674000e+06		2.5216000e+02		7.7438820e+15		2.6960556e-04
5.8354000e+06		2.4938000e+02		7.1336467e+15		2.4562193e-04
5.9026000e+06		2.4642000e+02		6.5766512e+15		2.2375600e-04
5.9690000e+06		2.4327000e+02		6.0690251e+15		2.0384563e-04
6.0345000e+06		2.3998000e+02		5.6048335e+15		1.8570846e-04
6.0991000e+06		2.3660000e+02		5.1790058e+15		1.6918235e-04
6.1628000e+06		2.3318000e+02		4.7872836e+15		1.5412546e-04
6.2255000e+06		2.2976000e+02		4.4260619e+15		1.4040605e-04
6.2874000e+06		2.2633000e+02		4.0933375e+15		1.2791268e-04
6.3482000e+06		2.2222000e+02		3.7981766e+15		1.1653388e-04
6.4077000e+06		2.1688000e+02		3.5451950e+15		1.0615820e-04
